#Saved Data from the class odmr_logic on 23.06.2022 at 18h37m43s.
#
#Parameters:
#===========
#
#Microwave CW Power (dBm): -1.0000000000000000e+01
#Microwave Sweep Power (dBm): 0.0000000000000000e+00
#Run Time (s): 1.8000000000000000e+02
#Number of frequency sweeps (#): 12
#Start Frequency (Hz): 2.8000000000000000e+09
#Stop Frequency (Hz): 2.9500000000000000e+09
#Step size (Hz): 5.0000000000000000e+05
#Clock Frequencies (Hz): 20
#Channel: 1: /Dev1/AI0
#frequency range: 0
#
#Data:
#=====
#frequency (Hz)	count data (counts/s)	
2.800000e+09	4.562558e-01
2.800500e+09	4.667444e-01
2.801000e+09	4.742748e-01
2.801500e+09	4.797133e-01
2.802000e+09	4.847335e-01
2.802500e+09	4.886780e-01
2.803000e+09	4.928615e-01
2.803500e+09	4.958198e-01
2.804000e+09	4.991666e-01
2.804500e+09	5.014377e-01
2.805000e+09	5.044259e-01
2.805500e+09	5.063085e-01
2.806000e+09	5.090875e-01
2.806500e+09	5.105817e-01
2.807000e+09	5.131216e-01
2.807500e+09	5.145560e-01
2.808000e+09	5.166477e-01
2.808500e+09	5.175741e-01
2.809000e+09	5.196061e-01
2.809500e+09	5.207117e-01
2.810000e+09	5.224150e-01
2.810500e+09	5.234908e-01
2.811000e+09	5.250745e-01
2.811500e+09	5.259710e-01
2.812000e+09	5.274352e-01
2.812500e+09	5.280627e-01
2.813000e+09	5.295270e-01
2.813500e+09	5.301246e-01
2.814000e+09	5.313797e-01
2.814500e+09	5.320371e-01
2.815000e+09	5.333818e-01
2.815500e+09	5.337404e-01
2.816000e+09	5.348161e-01
2.816500e+09	5.353839e-01
2.817000e+09	5.363401e-01
2.817500e+09	5.367286e-01
2.818000e+09	5.376549e-01
2.818500e+09	5.382227e-01
2.819000e+09	5.392088e-01
2.819500e+09	5.394479e-01
2.820000e+09	5.404041e-01
2.820500e+09	5.405535e-01
2.821000e+09	5.415396e-01
2.821500e+09	5.417787e-01
2.822000e+09	5.425556e-01
2.822500e+09	5.428544e-01
2.823000e+09	5.435716e-01
2.823500e+09	5.439302e-01
2.824000e+09	5.446175e-01
2.824500e+09	5.447669e-01
2.825000e+09	5.456634e-01
2.825500e+09	5.455737e-01
2.826000e+09	5.461714e-01
2.826500e+09	5.464403e-01
2.827000e+09	5.470977e-01
2.827500e+09	5.473965e-01
2.828000e+09	5.480241e-01
2.828500e+09	5.482631e-01
2.829000e+09	5.486815e-01
2.829500e+09	5.487711e-01
2.830000e+09	5.493389e-01
2.830500e+09	5.494883e-01
2.831000e+09	5.499963e-01
2.831500e+09	5.501457e-01
2.832000e+09	5.507135e-01
2.832500e+09	5.507732e-01
2.833000e+09	5.514904e-01
2.833500e+09	5.513410e-01
2.834000e+09	5.519685e-01
2.834500e+09	5.518490e-01
2.835000e+09	5.525363e-01
2.835500e+09	5.523570e-01
2.836000e+09	5.530443e-01
2.836500e+09	5.529546e-01
2.837000e+09	5.534327e-01
2.837500e+09	5.533431e-01
2.838000e+09	5.538810e-01
2.838500e+09	5.538810e-01
2.839000e+09	5.544786e-01
2.839500e+09	5.542993e-01
2.840000e+09	5.549269e-01
2.840500e+09	5.548372e-01
2.841000e+09	5.555245e-01
2.841500e+09	5.552556e-01
2.842000e+09	5.557038e-01
2.842500e+09	5.555843e-01
2.843000e+09	5.561221e-01
2.843500e+09	5.558532e-01
2.844000e+09	5.563612e-01
2.844500e+09	5.564508e-01
2.845000e+09	5.568393e-01
2.845500e+09	5.566600e-01
2.846000e+09	5.571979e-01
2.846500e+09	5.569290e-01
2.847000e+09	5.573772e-01
2.847500e+09	5.573473e-01
2.848000e+09	5.578553e-01
2.848500e+09	5.576461e-01
2.849000e+09	5.581242e-01
2.849500e+09	5.580346e-01
2.850000e+09	5.584530e-01
2.850500e+09	5.582139e-01
2.851000e+09	5.587518e-01
2.851500e+09	5.583932e-01
2.852000e+09	5.589908e-01
2.852500e+09	5.588115e-01
2.853000e+09	5.592598e-01
2.853500e+09	5.591701e-01
2.854000e+09	5.594689e-01
2.854500e+09	5.594391e-01
2.855000e+09	5.597977e-01
2.855500e+09	5.596482e-01
2.856000e+09	5.601264e-01
2.856500e+09	5.598275e-01
2.857000e+09	5.601861e-01
2.857500e+09	5.600068e-01
2.858000e+09	5.605447e-01
2.858500e+09	5.603953e-01
2.859000e+09	5.608435e-01
2.859500e+09	5.605447e-01
2.860000e+09	5.610826e-01
2.860500e+09	5.607838e-01
2.861000e+09	5.609929e-01
2.861500e+09	5.609929e-01
2.862000e+09	5.614412e-01
2.862500e+09	5.612619e-01
2.863000e+09	5.615607e-01
2.863500e+09	5.613216e-01
2.864000e+09	5.616503e-01
2.864500e+09	5.615607e-01
2.865000e+09	5.618894e-01
2.865500e+09	5.616802e-01
2.866000e+09	5.621285e-01
2.866500e+09	5.619791e-01
2.867000e+09	5.624273e-01
2.867500e+09	5.621285e-01
2.868000e+09	5.624572e-01
2.868500e+09	5.622480e-01
2.869000e+09	5.627261e-01
2.869500e+09	5.625169e-01
2.870000e+09	5.629353e-01
2.870500e+09	5.625169e-01
2.871000e+09	5.631146e-01
2.871500e+09	5.628456e-01
2.872000e+09	5.632042e-01
2.872500e+09	5.629353e-01
2.873000e+09	5.633536e-01
2.873500e+09	5.630548e-01
2.874000e+09	5.634732e-01
2.874500e+09	5.632640e-01
2.875000e+09	5.635628e-01
2.875500e+09	5.632640e-01
2.876000e+09	5.637720e-01
2.876500e+09	5.635329e-01
2.877000e+09	5.639812e-01
2.877500e+09	5.638616e-01
2.878000e+09	5.639812e-01
2.878500e+09	5.639812e-01
2.879000e+09	5.640409e-01
2.879500e+09	5.639812e-01
2.880000e+09	5.644294e-01
2.880500e+09	5.640409e-01
2.881000e+09	5.643995e-01
2.881500e+09	5.642501e-01
2.882000e+09	5.645489e-01
2.882500e+09	5.645489e-01
2.883000e+09	5.645788e-01
2.883500e+09	5.643696e-01
2.884000e+09	5.647282e-01
2.884500e+09	5.646087e-01
2.885000e+09	5.648179e-01
2.885500e+09	5.646685e-01
2.886000e+09	5.649972e-01
2.886500e+09	5.647581e-01
2.887000e+09	5.651466e-01
2.887500e+09	5.648776e-01
2.888000e+09	5.652661e-01
2.888500e+09	5.650270e-01
2.889000e+09	5.653557e-01
2.889500e+09	5.651764e-01
2.890000e+09	5.655052e-01
2.890500e+09	5.652661e-01
2.891000e+09	5.657143e-01
2.891500e+09	5.652960e-01
2.892000e+09	5.656844e-01
2.892500e+09	5.655948e-01
2.893000e+09	5.657143e-01
2.893500e+09	5.654753e-01
2.894000e+09	5.659534e-01
2.894500e+09	5.656844e-01
2.895000e+09	5.659534e-01
2.895500e+09	5.657143e-01
2.896000e+09	5.659534e-01
2.896500e+09	5.658637e-01
2.897000e+09	5.659833e-01
2.897500e+09	5.659833e-01
2.898000e+09	5.662223e-01
2.898500e+09	5.659534e-01
2.899000e+09	5.663419e-01
2.899500e+09	5.661924e-01
2.900000e+09	5.665510e-01
2.900500e+09	5.661924e-01
2.901000e+09	5.665211e-01
2.901500e+09	5.663419e-01
2.902000e+09	5.667901e-01
2.902500e+09	5.663419e-01
2.903000e+09	5.665809e-01
2.903500e+09	5.664016e-01
2.904000e+09	5.668797e-01
2.904500e+09	5.665510e-01
2.905000e+09	5.668797e-01
2.905500e+09	5.666108e-01
2.906000e+09	5.669694e-01
2.906500e+09	5.667004e-01
2.907000e+09	5.670889e-01
2.907500e+09	5.666108e-01
2.908000e+09	5.671786e-01
2.908500e+09	5.668200e-01
2.909000e+09	5.670590e-01
2.909500e+09	5.667602e-01
2.910000e+09	5.672682e-01
2.910500e+09	5.671188e-01
2.911000e+09	5.673280e-01
2.911500e+09	5.669096e-01
2.912000e+09	5.672383e-01
2.912500e+09	5.672084e-01
2.913000e+09	5.673877e-01
2.913500e+09	5.671487e-01
2.914000e+09	5.674475e-01
2.914500e+09	5.672981e-01
2.915000e+09	5.676567e-01
2.915500e+09	5.673280e-01
2.916000e+09	5.677463e-01
2.916500e+09	5.673280e-01
2.917000e+09	5.676866e-01
2.917500e+09	5.673280e-01
2.918000e+09	5.677463e-01
2.918500e+09	5.673578e-01
2.919000e+09	5.677762e-01
2.919500e+09	5.675670e-01
2.920000e+09	5.679256e-01
2.920500e+09	5.676866e-01
2.921000e+09	5.679854e-01
2.921500e+09	5.675969e-01
2.922000e+09	5.680153e-01
2.922500e+09	5.676268e-01
2.923000e+09	5.679854e-01
2.923500e+09	5.677762e-01
2.924000e+09	5.679555e-01
2.924500e+09	5.679854e-01
2.925000e+09	5.679555e-01
2.925500e+09	5.678957e-01
2.926000e+09	5.682244e-01
2.926500e+09	5.679854e-01
2.927000e+09	5.682842e-01
2.927500e+09	5.678658e-01
2.928000e+09	5.683738e-01
2.928500e+09	5.681049e-01
2.929000e+09	5.684336e-01
2.929500e+09	5.681946e-01
2.930000e+09	5.686428e-01
2.930500e+09	5.682842e-01
2.931000e+09	5.685233e-01
2.931500e+09	5.680750e-01
2.932000e+09	5.685830e-01
2.932500e+09	5.682543e-01
2.933000e+09	5.685233e-01
2.933500e+09	5.681946e-01
2.934000e+09	5.684635e-01
2.934500e+09	5.682842e-01
2.935000e+09	5.686727e-01
2.935500e+09	5.683141e-01
2.936000e+09	5.686727e-01
2.936500e+09	5.684336e-01
2.937000e+09	5.688520e-01
2.937500e+09	5.684934e-01
2.938000e+09	5.689416e-01
2.938500e+09	5.685531e-01
2.939000e+09	5.688520e-01
2.939500e+09	5.687922e-01
2.940000e+09	5.687922e-01
2.940500e+09	5.686428e-01
2.941000e+09	5.688221e-01
2.941500e+09	5.687623e-01
2.942000e+09	5.691209e-01
2.942500e+09	5.687623e-01
2.943000e+09	5.690611e-01
2.943500e+09	5.688818e-01
2.944000e+09	5.690611e-01
2.944500e+09	5.687922e-01
2.945000e+09	5.692105e-01
2.945500e+09	5.689117e-01
2.946000e+09	5.691807e-01
2.946500e+09	5.690313e-01
2.947000e+09	5.692105e-01
2.947500e+09	5.689117e-01
2.948000e+09	5.692404e-01
2.948500e+09	5.689416e-01
2.949000e+09	5.692105e-01
2.949500e+09	5.690014e-01
2.950000e+09	5.692703e-01
